# Matter power spectrum P(k) at redshift z=2
# for k=1.03944e-05 to 328.769 h/Mpc,
# number of wavenumbers equal to 605
#    1:k (h/Mpc)              2:P (Mpc/h)^3        
       1.039438893066e-05       5.091216677786e+00 
       1.088426138884e-05       5.326985430836e+00 
       1.139722082470e-05       5.573671930031e+00 
       1.193435529399e-05       5.831782049458e+00 
       1.249680413092e-05       6.101845033216e+00 
       1.308576036488e-05       6.384413936020e+00 
       1.370247325102e-05       6.680068066531e+00 
       1.434825092005e-05       6.989412916970e+00 
       1.502446315298e-05       7.313083718247e+00 
       1.573254428662e-05       7.651742428593e+00 
       1.647399625600e-05       8.006083700744e+00 
       1.725039178014e-05       8.376833435559e+00 
       1.806337769805e-05       8.764752086143e+00 
       1.891467846185e-05       9.170633910618e+00 
       1.980609979461e-05       9.595310800171e+00 
       2.073953252048e-05       1.003965270651e+01 
       2.171695657542e-05       1.050457123232e+01 
       2.274044520691e-05       1.099101807137e+01 
       2.381216937154e-05       1.149999013785e+01 
       2.493440233996e-05       1.203253059721e+01 
       2.610952451876e-05       1.258973064654e+01 
       2.734002849963e-05       1.317273173582e+01 
       2.862852434649e-05       1.378272839976e+01 
       2.997774513178e-05       1.442097043715e+01 
       3.139055273368e-05       1.508876537431e+01 
       3.286994390653e-05       1.578748139808e+01 
       3.441905663736e-05       1.651854943660e+01 
       3.604117680196e-05       1.728346755746e+01 
       3.773974513469e-05       1.808380230960e+01 
       3.951836452669e-05       1.892119303352e+01 
       4.138080766818e-05       1.979735427794e+01 
       4.333102505076e-05       2.071408094281e+01 
       4.537315334696e-05       2.167325004259e+01 
       4.751152418469e-05       2.267682507006e+01 
       4.975067333520e-05       2.372686113005e+01 
       5.209535033404e-05       2.482550729854e+01 
       5.455052855549e-05       2.597501349804e+01 
       5.712141576172e-05       2.717773095726e+01 
       5.981346514918e-05       2.843612157261e+01 
       6.263238691556e-05       2.975275968109e+01 
       6.558416037185e-05       3.113033917300e+01 
       6.867504662531e-05       3.257167669814e+01 
       7.191160186009e-05       3.407972047176e+01 
       7.530069124377e-05       3.565755301193e+01 
       7.884950348932e-05       3.730839931057e+01 
       8.256556610330e-05       3.903563254507e+01 
       8.645676135275e-05       4.084278107617e+01 
       9.053134298449e-05       4.273353522518e+01 
       9.479795373245e-05       4.471175464473e+01 
       9.926564365005e-05       4.678147612110e+01 
       1.039438893066e-04       4.894692119848e+01 
       1.088426138884e-04       5.121250470928e+01 
       1.139722082470e-04       5.358284311580e+01 
       1.193435529399e-04       5.606276375291e+01 
       1.249680413092e-04       5.865731405630e+01 
       1.308576036488e-04       6.137177128389e+01 
       1.370247325102e-04       6.421165238481e+01 
       1.434825092005e-04       6.718272455050e+01 
       1.502446315298e-04       7.029101625280e+01 
       1.573254428662e-04       7.354282816059e+01 
       1.647399625600e-04       7.694474504313e+01 
       1.725039178014e-04       8.050364746724e+01 
       1.806337769805e-04       8.422672455609e+01 
       1.891467846185e-04       8.812148676374e+01 
       1.980609979461e-04       9.219577874755e+01 
       2.073953252048e-04       9.645779336003e+01 
       2.171695657542e-04       1.009160855347e+02 
       2.274044520691e-04       1.055795863003e+02 
       2.381216937154e-04       1.104576178041e+02 
       2.493440233996e-04       1.155599078634e+02 
       2.610952451876e-04       1.208966056401e+02 
       2.734002849963e-04       1.264782964914e+02 
       2.862852434649e-04       1.323160180460e+02 
       2.997774513178e-04       1.384212756381e+02 
       3.139055273368e-04       1.448060581613e+02 
       3.286994390653e-04       1.514828539359e+02 
       3.441905663736e-04       1.584646661316e+02 
       3.604117680196e-04       1.657650284287e+02 
       3.773974513469e-04       1.733980198757e+02 
       3.951836452669e-04       1.813782801486e+02 
       4.138080766818e-04       1.897210231382e+02 
       4.333102505076e-04       1.984420508177e+02 
       4.537315334696e-04       2.075577659431e+02 
       4.751152418469e-04       2.170851834511e+02 
       4.975067333520e-04       2.270419418710e+02 
       5.209535033404e-04       2.374463115333e+02 
       5.455052855549e-04       2.483172033856e+02 
       5.712141576172e-04       2.596741743562e+02 
       5.981346514918e-04       2.715374332331e+02 
       6.263238691556e-04       2.839278419638e+02 
       6.558416037185e-04       2.968669172101e+02 
       6.867504662531e-04       3.103768274267e+02 
       7.191160186009e-04       3.244803908482e+02 
       7.530069124377e-04       3.392010674549e+02 
       7.884950348932e-04       3.545629499345e+02 
       8.256556610330e-04       3.705907538984e+02 
       8.645676135275e-04       3.873098006079e+02 
       9.053134298449e-04       4.047459986536e+02 
       9.479795373245e-04       4.229258228383e+02 
       9.926564365005e-04       4.418762881274e+02 
       1.039438893066e-03       4.616249143332e+02 
       1.088426138884e-03       4.821996887172e+02 
       1.139722082470e-03       5.036290175509e+02 
       1.193435529399e-03       5.259416649076e+02 
       1.249680413092e-03       5.491666932234e+02 
       1.308576036488e-03       5.733333725196e+02 
       1.370247325102e-03       5.984687908351e+02 
       1.434825092005e-03       6.246032049384e+02 
       1.502446315298e-03       6.517668985288e+02 
       1.573254428662e-03       6.799887222988e+02 
       1.647399625600e-03       7.092970363506e+02 
       1.725039178014e-03       7.397195266164e+02 
       1.806337769805e-03       7.712829758595e+02 
       1.891467846185e-03       8.040130752281e+02 
       1.980609979461e-03       8.379341588932e+02 
       2.073953252048e-03       8.730690275661e+02 
       2.171695657542e-03       9.094387033160e+02 
       2.274044520691e-03       9.470621399985e+02 
       2.381216937154e-03       9.859560595041e+02 
       2.493440233996e-03       1.026134412820e+03 
       2.610952451876e-03       1.067608346418e+03 
       2.734002849963e-03       1.110385584438e+03 
       2.862852434649e-03       1.154470094907e+03 
       2.997774513178e-03       1.199861581987e+03 
       3.139055273368e-03       1.246554923297e+03 
       3.286994390653e-03       1.294540075001e+03 
       3.441905663736e-03       1.343801201720e+03 
       3.604117680195e-03       1.394316377789e+03 
       3.773974513465e-03       1.446057046770e+03 
       3.951836452656e-03       1.498987699544e+03 
       4.138080766772e-03       1.553064533908e+03 
       4.333102504924e-03       1.608235966866e+03 
       4.537315334212e-03       1.664441112535e+03 
       4.751152416987e-03       1.721609867573e+03 
       4.975067329150e-03       1.779661828108e+03 
       5.209535020979e-03       1.838505901386e+03 
       5.455052821463e-03       1.898038306458e+03 
       5.712141485855e-03       1.958143201420e+03 
       5.981346283567e-03       2.018694866179e+03 
       6.263238118132e-03       2.079549146363e+03 
       6.558414660732e-03       2.140551349332e+03 
       6.867501459901e-03       2.201528814082e+03 
       7.191152956917e-03       2.262299284870e+03 
       7.530053280611e-03       2.322674484378e+03 
       7.884916605419e-03       2.382447567356e+03 
       8.256486717675e-03       2.441260311991e+03 
       8.645535230472e-03       2.498969970886e+03 
       9.052857600346e-03       2.555274426750e+03 
       9.479265718748e-03       2.609878676647e+03 
       9.925575382821e-03       2.662470820910e+03 
       1.039258643002e-02       2.712708047476e+03 
       1.088105284259e-02       2.760234398807e+03 
       1.139163987327e-02       2.804677282101e+03 
       1.192486551830e-02       2.845643468804e+03 
       1.248102491445e-02       2.882731133618e+03 
       1.306009899132e-02       2.915555447372e+03 
       1.366165338319e-02       2.943730575098e+03 
       1.428474006812e-02       2.966914627151e+03 
       1.492782119053e-02       2.984824899479e+03 
       1.558873920002e-02       2.997276985870e+03 
       1.626475584650e-02       3.004175357637e+03 
       1.695267161463e-02       3.005572114271e+03 
       1.764901767707e-02       3.001630650044e+03 
       1.835029088276e-02       2.992645611173e+03 
       1.905318850021e-02       2.979010945146e+03 
       1.975480048112e-02       2.961153302251e+03 
       2.045273209079e-02       2.939600940743e+03 
       2.114515086997e-02       2.914818216914e+03 
       2.183076964945e-02       2.887272746594e+03 
       2.250878646710e-02       2.857412854039e+03 
       2.317880288945e-02       2.825633351644e+03 
       2.384073771600e-02       2.792285474909e+03 
       2.449474691512e-02       2.757617796136e+03 
       2.514115521325e-02       2.722081539015e+03 
       2.578040092737e-02       2.685698864747e+03 
       2.641299337973e-02       2.648772793041e+03 
       2.703948116953e-02       2.611478420893e+03 
       2.766042926239e-02       2.573915360964e+03 
       2.827640294929e-02       2.536236279781e+03 
       2.888795699587e-02       2.498566959194e+03 
       2.949562862076e-02       2.460980856567e+03 
       3.009993324184e-02       2.423592144492e+03 
       3.070136218621e-02       2.386461811827e+03 
       3.130038176626e-02       2.349643905117e+03 
       3.189743328477e-02       2.313219619857e+03 
       3.249293365372e-02       2.277223984529e+03 
       3.308727640171e-02       2.241712105855e+03 
       3.368083291131e-02       2.206739195848e+03 
       3.427395377618e-02       2.172318913254e+03 
       3.486697020219e-02       2.138490875322e+03 
       3.546019540218e-02       2.105300856298e+03 
       3.605392595108e-02       2.072763428972e+03 
       3.664844308127e-02       2.040897188530e+03 
       3.724401390615e-02       2.009734508803e+03 
       3.784089256619e-02       1.979299114376e+03 
       3.843932129587e-02       1.949583723927e+03 
       3.903953141241e-02       1.920619989261e+03 
       3.964174422894e-02       1.892410644179e+03 
       4.024617189616e-02       1.864974848111e+03 
       4.085301817660e-02       1.838309227474e+03 
       4.146247915621e-02       1.812408841516e+03 
       4.207474389803e-02       1.787302190447e+03 
       4.268999504240e-02       1.762966436188e+03 
       4.330840935815e-02       1.739394936802e+03 
       4.393015824890e-02       1.716617816473e+03 
       4.455540821840e-02       1.694590271123e+03 
       4.518432129829e-02       1.673326218818e+03 
       4.581705544188e-02       1.652806201817e+03 
       4.645376488673e-02       1.633017282728e+03 
       4.709460048886e-02       1.613943423082e+03 
       4.773971003119e-02       1.595569726952e+03 
       4.838923850841e-02       1.577874983129e+03 
       4.904332839040e-02       1.560845188210e+03 
       4.970211986605e-02       1.544453540985e+03 
       5.036575106931e-02       1.528668022620e+03 
       5.103435828883e-02       1.513470408721e+03 
       5.170807616278e-02       1.498824088511e+03 
       5.238703786007e-02       1.484701869232e+03 
       5.307137524905e-02       1.471063128864e+03 
       5.376121905485e-02       1.457867504552e+03 
       5.445669900625e-02       1.445094010561e+03 
       5.515794397297e-02       1.432738156491e+03 
       5.586508209412e-02       1.420672863444e+03 
       5.657824089865e-02       1.408919388129e+03 
       5.729754741823e-02       1.397434269404e+03 
       5.802312829339e-02       1.386139940696e+03 
       5.875510987328e-02       1.375009162754e+03 
       5.949361830965e-02       1.363993731633e+03 
       6.023877964542e-02       1.353055599095e+03 
       6.099071989830e-02       1.342133649212e+03 
       6.174956513981e-02       1.331191756844e+03 
       6.251544157005e-02       1.320180129083e+03 
       6.328847558851e-02       1.309052902854e+03 
       6.406879386123e-02       1.297767515521e+03 
       6.485652338457e-02       1.286278693489e+03 
       6.565179154583e-02       1.274546406566e+03 
       6.645472618088e-02       1.262535181408e+03 
       6.726545562910e-02       1.250203437972e+03 
       6.808410878579e-02       1.237520307591e+03 
       6.891081515213e-02       1.224457143445e+03 
       6.974570488294e-02       1.210987476021e+03 
       7.058890883244e-02       1.197091841555e+03 
       7.144055859792e-02       1.182754078835e+03 
       7.230078656173e-02       1.167958986535e+03 
       7.316972593145e-02       1.152704421833e+03 
       7.404751077856e-02       1.136990287322e+03 
       7.493427607550e-02       1.120819611258e+03 
       7.583015773141e-02       1.104203413327e+03 
       7.673529262646e-02       1.087161729868e+03 
       7.764981864502e-02       1.069717048115e+03 
       7.857387470754e-02       1.051895804124e+03 
       7.950760080144e-02       1.033736764201e+03 
       8.045113801083e-02       1.015279439631e+03 
       8.140462854537e-02       9.965693142001e+02 
       8.236821576807e-02       9.776533916887e+02 
       8.334204422231e-02       9.585922142961e+02 
       8.432625965800e-02       9.394378327013e+02 
       8.532100905690e-02       9.202371013450e+02 
       8.632644065732e-02       9.011075322676e+02 
       8.734270397798e-02       8.820436426168e+02 
       8.836994984135e-02       8.631583736209e+02 
       8.940833039624e-02       8.445292154231e+02 
       9.045799913992e-02       8.261765037104e+02 
       9.151911093961e-02       8.081798704259e+02 
       9.259182205350e-02       7.906100455659e+02 
       9.367629015127e-02       7.735135268683e+02 
       9.477267433417e-02       7.569480873653e+02 
       9.588113515464e-02       7.409623044238e+02 
       9.700183463561e-02       7.255963318031e+02 
       9.813493628939e-02       7.108866403147e+02 
       9.928060513623e-02       6.968642121985e+02 
       1.004390077226e-01       6.835463352270e+02 
       1.016103121392e-01       6.709516976775e+02 
       1.027946880387e-01       6.590905314833e+02 
       1.039923066533e-01       6.479491731217e+02 
       1.052033408120e-01       6.375247117785e+02 
       1.064279649578e-01       6.278023392948e+02 
       1.076663551650e-01       6.187475435489e+02 
       1.089186891558e-01       6.103272771257e+02 
       1.101851463174e-01       6.024950224881e+02 
       1.114659077190e-01       5.952009527263e+02 
       1.127611561281e-01       5.883913339642e+02 
       1.140710760282e-01       5.819978923554e+02 
       1.153958536349e-01       5.759277115319e+02 
       1.167356769134e-01       5.701608457573e+02 
       1.180907355956e-01       5.645631069622e+02 
       1.194612211971e-01       5.590704274560e+02 
       1.208473270351e-01       5.536012221054e+02 
       1.222492482458e-01       5.480696462857e+02 
       1.236671818022e-01       5.423946961783e+02 
       1.251013265331e-01       5.365056891196e+02 
       1.265518831407e-01       5.303304260848e+02 
       1.280190542205e-01       5.238078227003e+02 
       1.295030442802e-01       5.168890862336e+02 
       1.310040597595e-01       5.095350008706e+02 
       1.325223090509e-01       5.017225235880e+02 
       1.340580025204e-01       4.934402065898e+02 
       1.356113525287e-01       4.846951996486e+02 
       1.371825734541e-01       4.755057452058e+02 
       1.387718817145e-01       4.659093769368e+02 
       1.403794957916e-01       4.559557978188e+02 
       1.420056362553e-01       4.457074196574e+02 
       1.436505257884e-01       4.352400219496e+02 
       1.453143892131e-01       4.246341534305e+02 
       1.469974535181e-01       4.139788644934e+02 
       1.486999478866e-01       4.033668757193e+02 
       1.504221037252e-01       3.928979021827e+02 
       1.521641546947e-01       3.826437578500e+02 
       1.539263367410e-01       3.727177199597e+02 
       1.557088881279e-01       3.631831310771e+02 
       1.575120494716e-01       3.541109725627e+02 
       1.593360637752e-01       3.455548308581e+02 
       1.611811764663e-01       3.375524816348e+02 
       1.630476354349e-01       3.301347638393e+02 
       1.649356910732e-01       3.233099841650e+02 
       1.668455963177e-01       3.170686604357e+02 
       1.687776066919e-01       3.113955810084e+02 
       1.707319803514e-01       3.062425316818e+02 
       1.727089781312e-01       3.015577506682e+02 
       1.747088635945e-01       2.972851572603e+02 
       1.767319030834e-01       2.933301848762e+02 
       1.787783657722e-01       2.896182132865e+02 
       1.808485237223e-01       2.860578235042e+02 
       1.829426519405e-01       2.825916615775e+02 
       1.850610284380e-01       2.791033325211e+02 
       1.872039342937e-01       2.754944146823e+02 
       1.893716537184e-01       2.716861737711e+02 
       1.915644741231e-01       2.676161613667e+02 
       1.937826861890e-01       2.632368252576e+02 
       1.960265839411e-01       2.585239425288e+02 
       1.982964648242e-01       2.534771328872e+02 
       2.005926297825e-01       2.481173200740e+02 
       2.029153833421e-01       2.424881399377e+02 
       2.052650336967e-01       2.366540146294e+02 
       2.076418927971e-01       2.306885068329e+02 
       2.100462764443e-01       2.246784832148e+02 
       2.124785043855e-01       2.187039816348e+02 
       2.149389004151e-01       2.128494645395e+02 
       2.174277924786e-01       2.071855820158e+02 
       2.199455127812e-01       2.017773778557e+02 
       2.224923979006e-01       1.966814782125e+02 
       2.250687889041e-01       1.919196864091e+02 
       2.276750314700e-01       1.875347452231e+02 
       2.303114760142e-01       1.835199877149e+02 
       2.329784778215e-01       1.798621690922e+02 
       2.356763971816e-01       1.765340883442e+02 
       2.384055995312e-01       1.734841278740e+02 
       2.411664556006e-01       1.706564253146e+02 
       2.439593415666e-01       1.679713857595e+02 
       2.467846392109e-01       1.653558058131e+02 
       2.496427360850e-01       1.627395990763e+02 
       2.525340256806e-01       1.600558087271e+02 
       2.554589076077e-01       1.572565288422e+02 
       2.584177877783e-01       1.543109029768e+02 
       2.614110785981e-01       1.512031964286e+02 
       2.644391991649e-01       1.479354300792e+02 
       2.675025754749e-01       1.445277083501e+02 
       2.706016406372e-01       1.410146707718e+02 
       2.737368350956e-01       1.374477074242e+02 
       2.769086068601e-01       1.338846550263e+02 
       2.801174117469e-01       1.303880185821e+02 
       2.833637136270e-01       1.270146886725e+02 
       2.866479846856e-01       1.238128658246e+02 
       2.899707056912e-01       1.208155395872e+02 
       2.933323662746e-01       1.180336155134e+02 
       2.967334652197e-01       1.154578254662e+02 
       3.001745107654e-01       1.130722061618e+02 
       3.036560209195e-01       1.108397705666e+02 
       3.071785237853e-01       1.087227600294e+02 
       3.107425579005e-01       1.066790242945e+02 
       3.143486725909e-01       1.046641722992e+02 
       3.179974283376e-01       1.026369308444e+02 
       3.216893971594e-01       1.005644269744e+02 
       3.254251630109e-01       9.842693667848e+01 
       3.292053221969e-01       9.622264290859e+01 
       3.330304838039e-01       9.396478704717e+01 
       3.369012701505e-01       9.167795086795e+01 
       3.408183172553e-01       8.939668546727e+01 
       3.447822753259e-01       8.714880286634e+01 
       3.487938092686e-01       8.496456848440e+01 
       3.528535992194e-01       8.286718736557e+01 
