# Matter power spectrum P(k) at redshift z=99
# for k=1.08927e-05 to 217.383 h/Mpc,
# number of wavenumbers equal to 595
#    1:k (h/Mpc)              2:P (Mpc/h)^3        
       1.089267211225e-05       6.272438712090e-03 
       1.140602793329e-05       6.556082574552e-03 
       1.194357746881e-05       6.852552860076e-03 
       1.250646093345e-05       7.162429752889e-03 
       1.309587227850e-05       7.486318133560e-03 
       1.371306172445e-05       7.824854056488e-03 
       1.435933841285e-05       8.178698781799e-03 
       1.503607318322e-05       8.548544509650e-03 
       1.574470148074e-05       8.935114887214e-03 
       1.648672640102e-05       9.339166110194e-03 
       1.726372187841e-05       9.761488607490e-03 
       1.807733602449e-05       1.020291009745e-02 
       1.892929462396e-05       1.066429131924e-02 
       1.982140479521e-05       1.114653633164e-02 
       2.075555882354e-05       1.165058854013e-02 
       2.173373817488e-05       1.217743401492e-02 
       2.275801769878e-05       1.272810357850e-02 
       2.383057002944e-05       1.330367476079e-02 
       2.495367019415e-05       1.390527319796e-02 
       2.612970043894e-05       1.453407557868e-02 
       2.736115528163e-05       1.519131232478e-02 
       2.865064680305e-05       1.587826852566e-02 
       3.000091018760e-05       1.659628902086e-02 
       3.141480952495e-05       1.734677822508e-02 
       3.289534388515e-05       1.813120411911e-02 
       3.444565368009e-05       1.895110121280e-02 
       3.606902732470e-05       1.980807337525e-02 
       3.776890821212e-05       2.070379699255e-02 
       3.954890201763e-05       2.164002421088e-02 
       4.141278434673e-05       2.261858640591e-02 
       4.336450874373e-05       2.364139772050e-02 
       4.540821507777e-05       2.471045874026e-02 
       4.754823832396e-05       2.582786059785e-02 
       4.978911775855e-05       2.699578959268e-02 
       5.213560658725e-05       2.821652788574e-02 
       5.459268202746e-05       2.949246572417e-02 
       5.716555586561e-05       3.082609749211e-02 
       5.985968551208e-05       3.222003090434e-02 
       6.268078557705e-05       3.367699305938e-02 
       6.563483999199e-05       3.519983185160e-02 
       6.872811470236e-05       3.679152680001e-02 
       7.196717095856e-05       3.845518920875e-02 
       7.535887923317e-05       4.019407287659e-02 
       7.891043379417e-05       4.201157747636e-02 
       8.262936796496e-05       4.391125575248e-02 
       8.652357010351e-05       4.589682206719e-02 
       9.060130033467e-05       4.797215858359e-02 
       9.487120807096e-05       5.014132117391e-02 
       9.934235035918e-05       5.240854973948e-02 
       1.040242110916e-04       5.477827504844e-02 
       1.089267211225e-04       5.725512855822e-02 
       1.140602793329e-04       5.984394907045e-02 
       1.194357746881e-04       6.254979398100e-02 
       1.250646093345e-04       6.537795069055e-02 
       1.309587227850e-04       6.833394134458e-02 
       1.371306172445e-04       7.142353863003e-02 
       1.435933841285e-04       7.465277520187e-02 
       1.503607318322e-04       7.802795473236e-02 
       1.574470148074e-04       8.155566381311e-02 
       1.648672640102e-04       8.524278640758e-02 
       1.726372187841e-04       8.909651428327e-02 
       1.807733602449e-04       9.312436293823e-02 
       1.892929462396e-04       9.733418504921e-02 
       1.982140479521e-04       1.017341847590e-01 
       2.075555882354e-04       1.063329333952e-01 
       2.173373817488e-04       1.111393857362e-01 
       2.275801769878e-04       1.161628984700e-01 
       2.383057002944e-04       1.214132438222e-01 
       2.495367019415e-04       1.269006306099e-01 
       2.612970043894e-04       1.326357218499e-01 
       2.736115528163e-04       1.386296554368e-01 
       2.865064680305e-04       1.448940629619e-01 
       3.000091018760e-04       1.514410910814e-01 
       3.141480952495e-04       1.582834246735e-01 
       3.289534388515e-04       1.654343062606e-01 
       3.444565368009e-04       1.729075628049e-01 
       3.606902732470e-04       1.807176272987e-01 
       3.776890821212e-04       1.888795644774e-01 
       3.954890201763e-04       1.974090966410e-01 
       4.141278434673e-04       2.063226281336e-01 
       4.336450874373e-04       2.156372747168e-01 
       4.540821507777e-04       2.253708891360e-01 
       4.754823832396e-04       2.355420906417e-01 
       4.978911775855e-04       2.461702910876e-01 
       5.213560658725e-04       2.572757279915e-01 
       5.459268202746e-04       2.688794909306e-01 
       5.716555586561e-04       2.810035501215e-01 
       5.985968551208e-04       2.936707910452e-01 
       6.268078557705e-04       3.069050342713e-01 
       6.563483999199e-04       3.207310820213e-01 
       6.872811470236e-04       3.351747207564e-01 
       7.196717095856e-04       3.502627758454e-01 
       7.535887923317e-04       3.660231183936e-01 
       7.891043379417e-04       3.824846998491e-01 
       8.262936796496e-04       3.996775727172e-01 
       8.652357010351e-04       4.176329046067e-01 
       9.060130033467e-04       4.363830036625e-01 
       9.487120807096e-04       4.559613283481e-01 
       9.934235035918e-04       4.764024905577e-01 
       1.040242110916e-03       4.977422623167e-01 
       1.089267211225e-03       5.200175705543e-01 
       1.140602793329e-03       5.432664827379e-01 
       1.194357746881e-03       5.675281871960e-01 
       1.250646093345e-03       5.928429550111e-01 
       1.309587227850e-03       6.192521000436e-01 
       1.371306172445e-03       6.467979138679e-01 
       1.435933841285e-03       6.755222343753e-01 
       1.503607318322e-03       7.054677300911e-01 
       1.574470148074e-03       7.366813747370e-01 
       1.648672640102e-03       7.692083448980e-01 
       1.726372187841e-03       8.030941777609e-01 
       1.807733602449e-03       8.383845702087e-01 
       1.892929462396e-03       8.751251377428e-01 
       1.982140479521e-03       9.133611408523e-01 
       2.075555882354e-03       9.531371535992e-01 
       2.173373817488e-03       9.944966991320e-01 
       2.275801769878e-03       1.037481837714e+00 
       2.383057002944e-03       1.082132643871e+00 
       2.495367019415e-03       1.128486735529e+00 
       2.612970043894e-03       1.176578574840e+00 
       2.736115528163e-03       1.226438870503e+00 
       2.865064680305e-03       1.278093820521e+00 
       3.000091018760e-03       1.331564203001e+00 
       3.141480952495e-03       1.386864593203e+00 
       3.289534388515e-03       1.444002396592e+00 
       3.444565368009e-03       1.502976512041e+00 
       3.606902732470e-03       1.563776789565e+00 
       3.776890821211e-03       1.626382538818e+00 
       3.954890201760e-03       1.690760878101e+00 
       4.141278434661e-03       1.756866680232e+00 
       4.336450874332e-03       1.824640526669e+00 
       4.540821507640e-03       1.894007276828e+00 
       4.754823831958e-03       1.964876313283e+00 
       4.978911774507e-03       2.037138680686e+00 
       5.213560654730e-03       2.110668008173e+00 
       5.459268191334e-03       2.185318516637e+00 
       5.716555555106e-03       2.260925332133e+00 
       5.985968467478e-03       2.337304843201e+00 
       6.268078342262e-03       2.414253848228e+00 
       6.563483462868e-03       2.491550686155e+00 
       6.872810177343e-03       2.568955294478e+00 
       7.196714075190e-03       2.646210998155e+00 
       7.535881077508e-03       2.723047845043e+00 
       7.891028316965e-03       2.799175918068e+00 
       8.262904595003e-03       2.874298263368e+00 
       8.652290065231e-03       2.948102262126e+00 
       9.059994586489e-03       3.020266091955e+00 
       9.486853898934e-03       3.090453431334e+00 
       9.933722388882e-03       3.158316060339e+00 
       1.040146072536e-02       3.223492459872e+00 
       1.089091610629e-02       3.285601594331e+00 
       1.140289233306e-02       3.344244459497e+00 
       1.193810661650e-02       3.399000696359e+00 
       1.249713020805e-02       3.449427464629e+00 
       1.308031109860e-02       3.495067818799e+00 
       1.368767968780e-02       3.535457197873e+00 
       1.431884297227e-02       3.570145610318e+00 
       1.497287940711e-02       3.598718082900e+00 
       1.564825402625e-02       3.620828943969e+00 
       1.634277889547e-02       3.636237648805e+00 
       1.705364341974e-02       3.644839413270e+00 
       1.777752887051e-02       3.646687481971e+00 
       1.851080187406e-02       3.641995865115e+00 
       1.924975857639e-02       3.631126283499e+00 
       1.999087498412e-02       3.614561139083e+00 
       2.073101782550e-02       3.592859109196e+00 
       2.146758456498e-02       3.566617011663e+00 
       2.219856323524e-02       3.536437872632e+00 
       2.292252240440e-02       3.502907864837e+00 
       2.363855254269e-02       3.466544653818e+00 
       2.434618177660e-02       3.427852728880e+00 
       2.504528474330e-02       3.387258271481e+00 
       2.573599684517e-02       3.345118638315e+00 
       2.641864029945e-02       3.301793124263e+00 
       2.709366409807e-02       3.257557045279e+00 
       2.776159741570e-02       3.212639294312e+00 
       2.842301474208e-02       3.167250049296e+00 
       2.907851060146e-02       3.121595210662e+00 
       2.972868177668e-02       3.075794162839e+00 
       3.037411522455e-02       3.030007557438e+00 
       3.101538020181e-02       2.984335280954e+00 
       3.165302344310e-02       2.938901141358e+00 
       3.228756650932e-02       2.893777686114e+00 
       3.291950465022e-02       2.849055057459e+00 
       3.354930670014e-02       2.804799620996e+00 
       3.417741565932e-02       2.761062936758e+00 
       3.480424971212e-02       2.717917268932e+00 
       3.543020350702e-02       2.675411070788e+00 
       3.605564957590e-02       2.633575170957e+00 
       3.668093980885e-02       2.592464433870e+00 
       3.730640692802e-02       2.552116592386e+00 
       3.793236592372e-02       2.512550129245e+00 
       3.855911542957e-02       2.473794950507e+00 
       3.918693902325e-02       2.435878799093e+00 
       3.981610644616e-02       2.398817349186e+00 
       4.044687473958e-02       2.362641001386e+00 
       4.107948929811e-02       2.327363338581e+00 
       4.171418484308e-02       2.292979596784e+00 
       4.235118631985e-02       2.259522899697e+00 
       4.299070972343e-02       2.226978461600e+00 
       4.363296285745e-02       2.195366637354e+00 
       4.427814603127e-02       2.164680452259e+00 
       4.492645270016e-02       2.134940795927e+00 
       4.557807005316e-02       2.106114099645e+00 
       4.623317955308e-02       2.078200132288e+00 
       4.689195743267e-02       2.051209553460e+00 
       4.755457515083e-02       2.025117388877e+00 
       4.822119981244e-02       1.999917320092e+00 
       4.889199455483e-02       1.975586260345e+00 
       4.956711890415e-02       1.952117168568e+00 
       5.024672910402e-02       1.929487810793e+00 
       5.093097841914e-02       1.907665054257e+00 
       5.162001741593e-02       1.886636808362e+00 
       5.231399422236e-02       1.866366702450e+00 
       5.301305476859e-02       1.846830306240e+00 
       5.371734301040e-02       1.827994843939e+00 
       5.442700113652e-02       1.809815588476e+00 
       5.514216976162e-02       1.792265438803e+00 
       5.586298810587e-02       1.775306233193e+00 
       5.658959416240e-02       1.758887046575e+00 
       5.732212485359e-02       1.742968993017e+00 
       5.806071617714e-02       1.727514663447e+00 
       5.880550334273e-02       1.712459919213e+00 
       5.955662090008e-02       1.697768324945e+00 
       6.031420285903e-02       1.683387341753e+00 
       6.107838280239e-02       1.669263627700e+00 
       6.184929399198e-02       1.655347454864e+00 
       6.262706946852e-02       1.641579806434e+00 
       6.341184214577e-02       1.627908460512e+00 
       6.420374489935e-02       1.614282749290e+00 
       6.500291065074e-02       1.600643156303e+00 
       6.580947244664e-02       1.586935640672e+00 
       6.662356353423e-02       1.573112725931e+00 
       6.744531743247e-02       1.559116573589e+00 
       6.827486799978e-02       1.544899020937e+00 
       6.911234949840e-02       1.530414088410e+00 
       6.995789665561e-02       1.515614219684e+00 
       7.081164472197e-02       1.500459756608e+00 
       7.167372952698e-02       1.484909195857e+00 
       7.254428753204e-02       1.468930328657e+00 
       7.342345588117e-02       1.452491153924e+00 
       7.431137244950e-02       1.435568617744e+00 
       7.520817588961e-02       1.418144875230e+00 
       7.611400567605e-02       1.400205075875e+00 
       7.702900214793e-02       1.381740979578e+00 
       7.795330654991e-02       1.362752691403e+00 
       7.888706107148e-02       1.343244623506e+00 
       7.983040888488e-02       1.323231835584e+00 
       8.078349418143e-02       1.302732669017e+00 
       8.174646220669e-02       1.281773192015e+00 
       8.271945929428e-02       1.260388536776e+00 
       8.370263289853e-02       1.238615696236e+00 
       8.469613162606e-02       1.216504974923e+00 
       8.570010526621e-02       1.194108057457e+00 
       8.671470482064e-02       1.171479797633e+00 
       8.774008253183e-02       1.148686214147e+00 
       8.877639191081e-02       1.125792991754e+00 
       8.982378776397e-02       1.102868468103e+00 
       9.088242621921e-02       1.079990792488e+00 
       9.195246475121e-02       1.057234849055e+00 
       9.303406220607e-02       1.034669812117e+00 
       9.412737882529e-02       1.012378316711e+00 
       9.523257626913e-02       9.904359729202e-01 
       9.634981763936e-02       9.689137917556e-01 
       9.747926750149e-02       9.478825685979e-01 
       9.862109190647e-02       9.274072346439e-01 
       9.977545841192e-02       9.075511880515e-01 
       1.009425361029e-01       8.883710586112e-01 
       1.021224956123e-01       8.699146508563e-01 
       1.033155091409e-01       8.522240541447e-01 
       1.045217504766e-01       8.353347222886e-01 
       1.057413950144e-01       8.192708973912e-01 
       1.069746197748e-01       8.040505173580e-01 
       1.082216034229e-01       7.896828625981e-01 
       1.094825262867e-01       7.761643343115e-01 
       1.107575703756e-01       7.634832977788e-01 
       1.120469193986e-01       7.516204927616e-01 
       1.133507587820e-01       7.405471888529e-01 
       1.146692756875e-01       7.302096238743e-01 
       1.160026590302e-01       7.205722009613e-01 
       1.173510994960e-01       7.115718678745e-01 
       1.187147895596e-01       7.031380819536e-01 
       1.200939235023e-01       6.951982985207e-01 
       1.214886974296e-01       6.876718011050e-01 
       1.228993092894e-01       6.804678539019e-01 
       1.243259588900e-01       6.734955411346e-01 
       1.257688479181e-01       6.666592474544e-01 
       1.272281799575e-01       6.598645782304e-01 
       1.287041605074e-01       6.530135887624e-01 
       1.301969970016e-01       6.460156574233e-01 
       1.317068988276e-01       6.387829427716e-01 
       1.332340773460e-01       6.312349939074e-01 
       1.347787459109e-01       6.233019140818e-01 
       1.363411198898e-01       6.149251173877e-01 
       1.379214166849e-01       6.060603439829e-01 
       1.395198557541e-01       5.966774700672e-01 
       1.411366586333e-01       5.867643396579e-01 
       1.427720489592e-01       5.763256158438e-01 
       1.444262524918e-01       5.653837964230e-01 
       1.460994971393e-01       5.539789807518e-01 
       1.477920129822e-01       5.421666112251e-01 
       1.495040322992e-01       5.300179074105e-01 
       1.512357895937e-01       5.176181850689e-01 
       1.529875216210e-01       5.050583453288e-01 
       1.547594674170e-01       4.924429504360e-01 
       1.565518683275e-01       4.798772029967e-01 
       1.583649680384e-01       4.674674796985e-01 
       1.601990126083e-01       4.553189735282e-01 
       1.620542505008e-01       4.435308139015e-01 
       1.639309326187e-01       4.321928520613e-01 
       1.658293123404e-01       4.213842080163e-01 
       1.677496455561e-01       4.111690002645e-01 
       1.696921907072e-01       4.015969477779e-01 
       1.716572088259e-01       3.926982993143e-01 
       1.736449635772e-01       3.844860627455e-01 
       1.756557213026e-01       3.769533012312e-01 
       1.776897510655e-01       3.700741757651e-01 
       1.797473246983e-01       3.638062748881e-01 
       1.818287168515e-01       3.580878175226e-01 
       1.839342050453e-01       3.528438671336e-01 
       1.860640697231e-01       3.479858598695e-01 
       1.882185943066e-01       3.434165366475e-01 
       1.903980652541e-01       3.390318586990e-01 
       1.926027721211e-01       3.347575927743e-01 
       1.948330076227e-01       3.304882349964e-01 
       1.970890676993e-01       3.260924639101e-01 
       1.993712515846e-01       3.214810260705e-01 
       2.016798618770e-01       3.165806472115e-01 
       2.040152046127e-01       3.113387923926e-01 
       2.063775893434e-01       3.057262347412e-01 
       2.087673292157e-01       2.997400164036e-01 
       2.111847410546e-01       2.934029215105e-01 
       2.136301454500e-01       2.867625054810e-01 
       2.161038668469e-01       2.798864659764e-01 
       2.186062336392e-01       2.728584412739e-01 
       2.211375782666e-01       2.657715061858e-01 
       2.236982373164e-01       2.587217846716e-01 
       2.262885516289e-01       2.518030189338e-01 
       2.289088664063e-01       2.451013781071e-01 
       2.315595313269e-01       2.386916487917e-01 
       2.342409006633e-01       2.326341599543e-01 
       2.369533334050e-01       2.269738069949e-01 
       2.396971933862e-01       2.217344230731e-01 
       2.424728494184e-01       2.169238203230e-01 
       2.452806754281e-01       2.125261124988e-01 
       2.481210505996e-01       2.085078170450e-01 
       2.509943595239e-01       2.048147062289e-01 
       2.539009923525e-01       2.013784946430e-01 
       2.568413449582e-01       1.981187076801e-01 
       2.598158191009e-01       1.949512164319e-01 
       2.628248226004e-01       1.917942513475e-01 
       2.658687695159e-01       1.885745752075e-01 
       2.689480803321e-01       1.852338123424e-01 
       2.720631821524e-01       1.817329811401e-01 
       2.752145088998e-01       1.780514361220e-01 
       2.784025015251e-01       1.741910321615e-01 
       2.816276082234e-01       1.701736947805e-01 
       2.848902846588e-01       1.660393251459e-01 
       2.881909941978e-01       1.618432771832e-01 
       2.915302081516e-01       1.576510521186e-01 
       2.949084060276e-01       1.535319670726e-01 
       2.983260757911e-01       1.495511751258e-01 
       3.017837141368e-01       1.457628072344e-01 
       3.052818267709e-01       1.422034503720e-01 
       3.088209287046e-01       1.388889321323e-01 
       3.124015445583e-01       1.358149861248e-01 
       3.160242088787e-01       1.329595403735e-01 
       3.196894664681e-01       1.302866232773e-01 
       3.233978727265e-01       1.277518797174e-01 
       3.271499940078e-01       1.253056567026e-01 
       3.309464079904e-01       1.228978737793e-01 
       3.347877040620e-01       1.204824547143e-01 
       3.386744837213e-01       1.180227344794e-01 
       3.426073609950e-01       1.154963380890e-01 
       3.465869628727e-01       1.128985039095e-01 
       3.506139297592e-01       1.102420214794e-01 
       3.546889159469e-01       1.075535508127e-01 
       3.588125901065e-01       1.048674007299e-01 
       3.629856357996e-01       1.022201346900e-01 
       3.672087520131e-01       9.964560267625e-02 
       3.714826537160e-01       9.717223923672e-02 
