# Matter power spectrum P(k) at redshift z=99
# for k=1.03944e-05 to 261.151 h/Mpc,
# number of wavenumbers equal to 600
#    1:k (h/Mpc)              2:P (Mpc/h)^3        
       1.039438893066e-05       4.240128024478e-03 
       1.088426138884e-05       4.436484402407e-03 
       1.139722082470e-05       4.641933807830e-03 
       1.193435529399e-05       4.856897329037e-03 
       1.249680413092e-05       5.081815101095e-03 
       1.308576036488e-05       5.317148987547e-03 
       1.370247325102e-05       5.563380904945e-03 
       1.434825092005e-05       5.821015598725e-03 
       1.502446315298e-05       6.090581018680e-03 
       1.573254428662e-05       6.372630712890e-03 
       1.647399625600e-05       6.667740569818e-03 
       1.725039178014e-05       6.976516692898e-03 
       1.806337769805e-05       7.299591857883e-03 
       1.891467846185e-05       7.637628296757e-03 
       1.980609979461e-05       7.991318445296e-03 
       2.073953252048e-05       8.361387911520e-03 
       2.171695657542e-05       8.748594544179e-03 
       2.274044520691e-05       9.153731795374e-03 
       2.381216937154e-05       9.577630747361e-03 
       2.493440233996e-05       1.002115949797e-02 
       2.610952451876e-05       1.048522735024e-02 
       2.734002849963e-05       1.097078460727e-02 
       2.862852434649e-05       1.147882766302e-02 
       2.997774513178e-05       1.201039713280e-02 
       3.139055273368e-05       1.256658242070e-02 
       3.286994390653e-05       1.314852335747e-02 
       3.441905663736e-05       1.375741255662e-02 
       3.604117680196e-05       1.439449782655e-02 
       3.773974513469e-05       1.506108473768e-02 
       3.951836452669e-05       1.575853938544e-02 
       4.138080766818e-05       1.648829098223e-02 
       4.333102505076e-05       1.725183510602e-02 
       4.537315334696e-05       1.805073583765e-02 
       4.751152418469e-05       1.888663115596e-02 
       4.975067333520e-05       1.976123204065e-02 
       5.209535033404e-05       2.067633302810e-02 
       5.455052855549e-05       2.163380774821e-02 
       5.712141576172e-05       2.263561786554e-02 
       5.981346514918e-05       2.368381670794e-02 
       6.263238691556e-05       2.478055043936e-02 
       6.558416037185e-05       2.592806781756e-02 
       6.867504662531e-05       2.712871761102e-02 
       7.191160186009e-05       2.838496119306e-02 
       7.530069124377e-05       2.969937055805e-02 
       7.884950348932e-05       3.107463794644e-02 
       8.256556610330e-05       3.251358064434e-02 
       8.645676135275e-05       3.401914618999e-02 
       9.053134298449e-05       3.559441642746e-02 
       9.479795373245e-05       3.724261770449e-02 
       9.926564365005e-05       3.896712418518e-02 
       1.039438893066e-04       4.077146711182e-02 
       1.088426138884e-04       4.265933952532e-02 
       1.139722082470e-04       4.463460544616e-02 
       1.193435529399e-04       4.670130763408e-02 
       1.249680413092e-04       4.886367474275e-02 
       1.308576036488e-04       5.112613087245e-02 
       1.370247325102e-04       5.349330375254e-02 
       1.434825092005e-04       5.597003481040e-02 
       1.502446315298e-04       5.856138810135e-02 
       1.573254428662e-04       6.127266079313e-02 
       1.647399625600e-04       6.410939410486e-02 
       1.725039178014e-04       6.707738385590e-02 
       1.806337769805e-04       7.018269226781e-02 
       1.891467846185e-04       7.343166038052e-02 
       1.980609979461e-04       7.683091844427e-02 
       2.073953252048e-04       8.038740232778e-02 
       2.171695657542e-04       8.410836515112e-02 
       2.274044520691e-04       8.800139134799e-02 
       2.381216937154e-04       9.207441233045e-02 
       2.493440233996e-04       9.633572059781e-02 
       2.610952451876e-04       1.007939876971e-01 
       2.734002849963e-04       1.054582785102e-01 
       2.862852434649e-04       1.103380700663e-01 
       2.997774513178e-04       1.154432684152e-01 
       3.139055273368e-04       1.207842279702e-01 
       3.286994390653e-04       1.263717705332e-01 
       3.441905663736e-04       1.322172037673e-01 
       3.604117680196e-04       1.383323444509e-01 
       3.773974513469e-04       1.447295358680e-01 
       3.951836452669e-04       1.514216735811e-01 
       4.138080766818e-04       1.584222248197e-01 
       4.333102505076e-04       1.657452524714e-01 
       4.537315334696e-04       1.734054384988e-01 
       4.751152418469e-04       1.814181078145e-01 
       4.975067333520e-04       1.897992537369e-01 
       5.209535033404e-04       1.985655604737e-01 
       5.455052855549e-04       2.077344285860e-01 
       5.712141576172e-04       2.173240080095e-01 
       5.981346514918e-04       2.273532027643e-01 
       6.263238691556e-04       2.378417225211e-01 
       6.558416037185e-04       2.488100848582e-01 
       6.867504662531e-04       2.602796552745e-01 
       7.191160186009e-04       2.722726569660e-01 
       7.530069124377e-04       2.848122048287e-01 
       7.884950348932e-04       2.979223179332e-01 
       8.256556610330e-04       3.116279381657e-01 
       8.645676135275e-04       3.259549509848e-01 
       9.053134298449e-04       3.409301966392e-01 
       9.479795373245e-04       3.565814757108e-01 
       9.926564365005e-04       3.729375563934e-01 
       1.039438893066e-03       3.900281767952e-01 
       1.088426138884e-03       4.078840320457e-01 
       1.139722082470e-03       4.265367664534e-01 
       1.193435529399e-03       4.460189459388e-01 
       1.249680413092e-03       4.663640281830e-01 
       1.308576036488e-03       4.876063145087e-01 
       1.370247325102e-03       5.097789831141e-01 
       1.434825092005e-03       5.329185515146e-01 
       1.502446315298e-03       5.570623367368e-01 
       1.573254428662e-03       5.822472393417e-01 
       1.647399625600e-03       6.085105317316e-01 
       1.725039178014e-03       6.358897127237e-01 
       1.806337769805e-03       6.644222976685e-01 
       1.891467846185e-03       6.941456179991e-01 
       1.980609979461e-03       7.250965548734e-01 
       2.073953252048e-03       7.573112545857e-01 
       2.171695657542e-03       7.908248065437e-01 
       2.274044520691e-03       8.256708124619e-01 
       2.381216937154e-03       8.618810364415e-01 
       2.493440233996e-03       8.994848180191e-01 
       2.610952451876e-03       9.385086391737e-01 
       2.734002849963e-03       9.789754260615e-01 
       2.862852434649e-03       1.020904002917e+00 
       2.997774513178e-03       1.064308263071e+00 
       3.139055273368e-03       1.109196427636e+00 
       3.286994390653e-03       1.155570309996e+00 
       3.441905663736e-03       1.203424297679e+00 
       3.604117680195e-03       1.252744420382e+00 
       3.773974513465e-03       1.303507621616e+00 
       3.951836452656e-03       1.355680688844e+00 
       4.138080766772e-03       1.409218967793e+00 
       4.333102504924e-03       1.464066065982e+00 
       4.537315334212e-03       1.520152335035e+00 
       4.751152416987e-03       1.577394617252e+00 
       4.975067329150e-03       1.635695231650e+00 
       5.209535020979e-03       1.694941905687e+00 
       5.455052821463e-03       1.755006284421e+00 
       5.712141485855e-03       1.815744901900e+00 
       5.981346283567e-03       1.877001908391e+00 
       6.263238118132e-03       1.938602277320e+00 
       6.558414660732e-03       2.000359327301e+00 
       6.867501459901e-03       2.062072660918e+00 
       7.191152956917e-03       2.123528372027e+00 
       7.530053280611e-03       2.184502174305e+00 
       7.884916605419e-03       2.244758774608e+00 
       8.256486717675e-03       2.304051515943e+00 
       8.645535230472e-03       2.362124740898e+00 
       9.052857600346e-03       2.418710150980e+00 
       9.479265718748e-03       2.473530440080e+00 
       9.925575382821e-03       2.526293089255e+00 
       1.039258643002e-02       2.576690916494e+00 
       1.088105284259e-02       2.624396782458e+00 
       1.139163987327e-02       2.669064703115e+00 
       1.192486551830e-02       2.710335216660e+00 
       1.248102491445e-02       2.747827389499e+00 
       1.306009899132e-02       2.781160191280e+00 
       1.366165338319e-02       2.809962520969e+00 
       1.428474006812e-02       2.833893786544e+00 
       1.492782119053e-02       2.852670616773e+00 
       1.558873920002e-02       2.866097128494e+00 
       1.626475584650e-02       2.874085504159e+00 
       1.695267161463e-02       2.876677695636e+00 
       1.764901767707e-02       2.874042306587e+00 
       1.835029088276e-02       2.866465740337e+00 
       1.905318850021e-02       2.854333941312e+00 
       1.975480048112e-02       2.838072558092e+00 
       2.045273209079e-02       2.818179103714e+00 
       2.114515086997e-02       2.795118327954e+00 
       2.183076964945e-02       2.769338633027e+00 
       2.250878646710e-02       2.741277009088e+00 
       2.317880288945e-02       2.711312709322e+00 
       2.384073771600e-02       2.679787692795e+00 
       2.449474691512e-02       2.647008225245e+00 
       2.514115521325e-02       2.613235431359e+00 
       2.578040092737e-02       2.578696524225e+00 
       2.641299337973e-02       2.543562642861e+00 
       2.703948116953e-02       2.508045607789e+00 
       2.766042926239e-02       2.472256312620e+00 
       2.827640294929e-02       2.436343017282e+00 
       2.888795699587e-02       2.400389445523e+00 
       2.949562862076e-02       2.364518394980e+00 
       3.009993324184e-02       2.328794586239e+00 
       3.070136218621e-02       2.293314657786e+00 
       3.130038176626e-02       2.258116123289e+00 
       3.189743328477e-02       2.223286918268e+00 
       3.249293365372e-02       2.188848510161e+00 
       3.308727640171e-02       2.154860148762e+00 
       3.368083291131e-02       2.121376937918e+00 
       3.427395377618e-02       2.088416216829e+00 
       3.486697020219e-02       2.056014331161e+00 
       3.546019540218e-02       2.024214856787e+00 
       3.605392595108e-02       1.993033812028e+00 
       3.664844308127e-02       1.962486733720e+00 
       3.724401390615e-02       1.932607268858e+00 
       3.784089256619e-02       1.903421577451e+00 
       3.843932129587e-02       1.874923476276e+00 
       3.903953141241e-02       1.847138514873e+00 
       3.964174422894e-02       1.820073284497e+00 
       4.024617189616e-02       1.793742504291e+00 
       4.085301817660e-02       1.768146727948e+00 
       4.146247915621e-02       1.743286218448e+00 
       4.207474389803e-02       1.719178707571e+00 
       4.268999504240e-02       1.695808594306e+00 
       4.330840935815e-02       1.673180278094e+00 
       4.393015824890e-02       1.651291608313e+00 
       4.455540821840e-02       1.630133752064e+00 
       4.518432129829e-02       1.609698975971e+00 
       4.581705544188e-02       1.589979023872e+00 
       4.645376488673e-02       1.570960216295e+00 
       4.709460048886e-02       1.552623155482e+00 
       4.773971003119e-02       1.534968879516e+00 
       4.838923850841e-02       1.517964060656e+00 
       4.904332839040e-02       1.501585830644e+00 
       4.970211986605e-02       1.485825223448e+00 
       5.036575106931e-02       1.470653146931e+00 
       5.103435828883e-02       1.456040510573e+00 
       5.170807616278e-02       1.441954447778e+00 
       5.238703786007e-02       1.428368686107e+00 
       5.307137524905e-02       1.415248349226e+00 
       5.376121905485e-02       1.402565030295e+00 
       5.445669900625e-02       1.390288328840e+00 
       5.515794397297e-02       1.378369789770e+00 
       5.586508209412e-02       1.366770310354e+00 
       5.657824089865e-02       1.355459610221e+00 
       5.729754741823e-02       1.344391253531e+00 
       5.802312829339e-02       1.333520858797e+00 
       5.875510987328e-02       1.322808798294e+00 
       5.949361830965e-02       1.312207592685e+00 
       6.023877964542e-02       1.301681683194e+00 
       6.099071989830e-02       1.291171452218e+00 
       6.174956513981e-02       1.280644582497e+00 
       6.251544157005e-02       1.270049195183e+00 
       6.328847558851e-02       1.259344893073e+00 
       6.406879386123e-02       1.248489413419e+00 
       6.485652338457e-02       1.237441755581e+00 
       6.565179154583e-02       1.226159226341e+00 
       6.645472618088e-02       1.214610201757e+00 
       6.726545562910e-02       1.202754452099e+00 
       6.808410878579e-02       1.190562584045e+00 
       6.891081515213e-02       1.178006608740e+00 
       6.974570488294e-02       1.165062328876e+00 
       7.058890883244e-02       1.151707771585e+00 
       7.144055859792e-02       1.137930047701e+00 
       7.230078656173e-02       1.123714676378e+00 
       7.316972593145e-02       1.109058052100e+00 
       7.404751077856e-02       1.093959449907e+00 
       7.493427607550e-02       1.078423403741e+00 
       7.583015773141e-02       1.062461260307e+00 
       7.673529262646e-02       1.046088720971e+00 
       7.764981864502e-02       1.029328248639e+00 
       7.857387470754e-02       1.012208037095e+00 
       7.950760080144e-02       9.947619328734e-01 
       8.045113801083e-02       9.770279686620e-01 
       8.140462854537e-02       9.590517167730e-01 
       8.236821576807e-02       9.408782406956e-01 
       8.334204422231e-02       9.225619356955e-01 
       8.432625965800e-02       9.041567163577e-01 
       8.532100905690e-02       8.857232045503e-01 
       8.632644065732e-02       8.673217146345e-01 
       8.734270397798e-02       8.490171810555e-01 
       8.836994984135e-02       8.308638411332e-01 
       8.940833039624e-02       8.129387414773e-01 
       9.045799913992e-02       7.952950226411e-01 
       9.151911093961e-02       7.779922788370e-01 
       9.259182205350e-02       7.610953675436e-01 
       9.367629015127e-02       7.446556533639e-01 
       9.477267433417e-02       7.287202171191e-01 
       9.588113515464e-02       7.133420815560e-01 
       9.700183463561e-02       6.985574002543e-01 
       9.813493628939e-02       6.844030062871e-01 
       9.928060513623e-02       6.709036781269e-01 
       1.004390077226e-01       6.580849179877e-01 
       1.016103121392e-01       6.459576489325e-01 
       1.027946880387e-01       6.345317971110e-01 
       1.039923066533e-01       6.238031549089e-01 
       1.052033408120e-01       6.137580548162e-01 
       1.064279649578e-01       6.043860524709e-01 
       1.076663551650e-01       5.956554701371e-01 
       1.089186891558e-01       5.875350653977e-01 
       1.101851463174e-01       5.799815173255e-01 
       1.114659077190e-01       5.729459646995e-01 
       1.127611561281e-01       5.663732096546e-01 
       1.140710760282e-01       5.601999775371e-01 
       1.153958536349e-01       5.543578015822e-01 
       1.167356769134e-01       5.487738447245e-01 
       1.180907355956e-01       5.433713295888e-01 
       1.194612211971e-01       5.380701146814e-01 
       1.208473270351e-01       5.327931965613e-01 
       1.222492482458e-01       5.274569464854e-01 
       1.236671818022e-01       5.219864374278e-01 
       1.251013265331e-01       5.163117672454e-01 
       1.265518831407e-01       5.103625736063e-01 
       1.280190542205e-01       5.040828272565e-01 
       1.295030442802e-01       4.974238088516e-01 
       1.310040597595e-01       4.903480296629e-01 
       1.325223090509e-01       4.828339129741e-01 
       1.340580025204e-01       4.748697202548e-01 
       1.356113525287e-01       4.664613153622e-01 
       1.371825734541e-01       4.576277862839e-01 
       1.387718817145e-01       4.484036086701e-01 
       1.403794957916e-01       4.388367850316e-01 
       1.420056362553e-01       4.289872857110e-01 
       1.436505257884e-01       4.189262833583e-01 
       1.453143892131e-01       4.087319960794e-01 
       1.469974535181e-01       3.984908991394e-01 
       1.486999478866e-01       3.882910531729e-01 
       1.504221037252e-01       3.782235187969e-01 
       1.521641546947e-01       3.683715912074e-01 
       1.539263367410e-01       3.588236608493e-01 
       1.557088881279e-01       3.496521045976e-01 
       1.575120494716e-01       3.409214581155e-01 
       1.593360637752e-01       3.326883180726e-01 
       1.611811764663e-01       3.249841260475e-01 
       1.630476354349e-01       3.178423826776e-01 
       1.649356910732e-01       3.112695630187e-01 
       1.668455963177e-01       3.052590465784e-01 
       1.687776066919e-01       2.997897102582e-01 
       1.707319803514e-01       2.948231800249e-01 
       1.727089781312e-01       2.903075128490e-01 
       1.747088635945e-01       2.861856219797e-01 
       1.767319030834e-01       2.823661810804e-01 
       1.787783657722e-01       2.787842901610e-01 
       1.808485237223e-01       2.753490027856e-01 
       1.829426519405e-01       2.720025055300e-01 
       1.850610284380e-01       2.686380798897e-01 
       1.872039342937e-01       2.651590324100e-01 
       1.893716537184e-01       2.614898535816e-01 
       1.915644741231e-01       2.575703123062e-01 
       1.937826861890e-01       2.533551005160e-01 
       1.960265839411e-01       2.488208578177e-01 
       1.982964648242e-01       2.439663360259e-01 
       2.005926297825e-01       2.388122209850e-01 
       2.029153833421e-01       2.334007798663e-01 
       2.052650336967e-01       2.277915805982e-01 
       2.076418927971e-01       2.220567822788e-01 
       2.100462764443e-01       2.162765191247e-01 
       2.124785043855e-01       2.105315844728e-01 
       2.149389004151e-01       2.049014596276e-01 
       2.174277924786e-01       1.994547654830e-01 
       2.199455127812e-01       1.942517977807e-01 
       2.224923979006e-01       1.893469003925e-01 
       2.250687889041e-01       1.847662471986e-01 
       2.276750314700e-01       1.805422001496e-01 
       2.303114760142e-01       1.766773783099e-01 
       2.329784778215e-01       1.731521802037e-01 
       2.356763971816e-01       1.699451313372e-01 
       2.384055995312e-01       1.670069958150e-01 
       2.411664556006e-01       1.642791454669e-01 
       2.439593415666e-01       1.616905379203e-01 
       2.467846392109e-01       1.591693289124e-01 
       2.496427360850e-01       1.566480648938e-01 
       2.525340256806e-01       1.540627241221e-01 
       2.554589076077e-01       1.513679247307e-01 
       2.584177877783e-01       1.485323965722e-01 
       2.614110785981e-01       1.455415070543e-01 
       2.644391991649e-01       1.423975466588e-01 
       2.675025754749e-01       1.391187275494e-01 
       2.706016406372e-01       1.357398556901e-01 
       2.737368350956e-01       1.323090374462e-01 
       2.769086068601e-01       1.288818080635e-01 
       2.801174117469e-01       1.255181623838e-01 
       2.833637136270e-01       1.222736797199e-01 
       2.866479846856e-01       1.191940486935e-01 
       2.899707056912e-01       1.163076944857e-01 
       2.933323662746e-01       1.136283685826e-01 
       2.967334652197e-01       1.111499936319e-01 
       3.001745107654e-01       1.088500998923e-01 
       3.036560209195e-01       1.066995161920e-01 
       3.071785237853e-01       1.046600611132e-01 
       3.107425579005e-01       1.026912799041e-01 
       3.143486725909e-01       1.007505490419e-01 
       3.179974283376e-01       9.879827393912e-02 
       3.216893971594e-01       9.680291800508e-02 
       3.254251630109e-01       9.474550213168e-02 
       3.292053221969e-01       9.262419222558e-02 
       3.330304838039e-01       9.045161610615e-02 
       3.369012701505e-01       8.825267481420e-02 
       3.408183172553e-01       8.605627870275e-02 
       3.447822753259e-01       8.389325906153e-02 
       3.487938092686e-01       8.179142673024e-02 
       3.528535992194e-01       7.977483720304e-02 
