# Matter power spectrum P(k) at redshift z=99
# for k=1.0969e-05 to 218.908 h/Mpc,
# number of wavenumbers equal to 595
#    1:k (h/Mpc)              2:P (Mpc/h)^3        
       1.096904831099e-05       5.850973689514e-03 
       1.148600363139e-05       6.115558660588e-03 
       1.202732230544e-05       6.392107806666e-03 
       1.259415254264e-05       6.681162945936e-03 
       1.318769666591e-05       6.983289246055e-03 
       1.380921366191e-05       7.299077885851e-03 
       1.446002185152e-05       7.629148153466e-03 
       1.514150168616e-05       7.974142791881e-03 
       1.585509867594e-05       8.334738139471e-03 
       1.660232645574e-05       8.711639710670e-03 
       1.738476999587e-05       9.105583465584e-03 
       1.820408896397e-05       9.517344562822e-03 
       1.906202124544e-05       9.947723958091e-03 
       1.996038662965e-05       1.039756362026e-02 
       2.090109067004e-05       1.086774839165e-02 
       2.188612872600e-05       1.135919326661e-02 
       2.291759019531e-05       1.187286133735e-02 
       2.399766294604e-05       1.240975750964e-02 
       2.512863795730e-05       1.297093221700e-02 
       2.631291417873e-05       1.355748320945e-02 
       2.755300361896e-05       1.417055717453e-02 
       2.885153667396e-05       1.481135474978e-02 
       3.021126770644e-05       1.548112856694e-02 
       3.163508088822e-05       1.618118920638e-02 
       3.312599631796e-05       1.691290617057e-02 
       3.468717642716e-05       1.767771085348e-02 
       3.632193268816e-05       1.847709925390e-02 
       3.803373263815e-05       1.931263566164e-02 
       3.982620723435e-05       2.018595337231e-02 
       4.170315855567e-05       2.109876119706e-02 
       4.366856786754e-05       2.205284410865e-02 
       4.572660406660e-05       2.305006933541e-02 
       4.788163252356e-05       2.409238689998e-02 
       5.013822434270e-05       2.518183550930e-02 
       5.250116605782e-05       2.632054589005e-02 
       5.497546978510e-05       2.751074539168e-02 
       5.756638385449e-05       2.875476153752e-02 
       6.027940394210e-05       3.005502718694e-02 
       6.312028472726e-05       3.141408527468e-02 
       6.609505209902e-05       3.283459338638e-02 
       6.921001593779e-05       3.431932914430e-02 
       7.247178349952e-05       3.587119577026e-02 
       7.588727343051e-05       3.749322799001e-02 
       7.946373044283e-05       3.918859710983e-02 
       8.320874068131e-05       4.096061627958e-02 
       8.713024781476e-05       4.281275027855e-02 
       9.123656988559e-05       4.474862063105e-02 
       9.553641695344e-05       4.677200972848e-02 
       1.000389095704e-04       4.888687243589e-02 
       1.047535981271e-04       5.109734114768e-02 
       1.096904831099e-04       5.340773601360e-02 
       1.148600363139e-04       5.582256981047e-02 
       1.202732230545e-04       5.834655966237e-02 
       1.259415254264e-04       6.098463591461e-02 
       1.318769666591e-04       6.374195004842e-02 
       1.380921366191e-04       6.662388668237e-02 
       1.446002185152e-04       6.963606969066e-02 
       1.514150168616e-04       7.278437908507e-02 
       1.585509867594e-04       7.607495738365e-02 
       1.660232645574e-04       7.951422376673e-02 
       1.738476999587e-04       8.310888498998e-02 
       1.820408896397e-04       8.686594963479e-02 
       1.906202124544e-04       9.079273968314e-02 
       1.996038662965e-04       9.489690500733e-02 
       2.090109067004e-04       9.918643784720e-02 
       2.188612872600e-04       1.036696878469e-01 
       2.291759019531e-04       1.083553767965e-01 
       2.399766294604e-04       1.132526164486e-01 
       2.512863795730e-04       1.183709233978e-01 
       2.631291417873e-04       1.237202380734e-01 
       2.755300361896e-04       1.293109413891e-01 
       2.885153667396e-04       1.351538742169e-01 
       3.021126770644e-04       1.412603579896e-01 
       3.163508088822e-04       1.476422120404e-01 
       3.312599631796e-04       1.543117779625e-01 
       3.468717642716e-04       1.612819358124e-01 
       3.632193268816e-04       1.685661314745e-01 
       3.803373263815e-04       1.761783994075e-01 
       3.982620723435e-04       1.841333803109e-01 
       4.170315855568e-04       1.924463513480e-01 
       4.366856786754e-04       2.011332459458e-01 
       4.572660406660e-04       2.102106862998e-01 
       4.788163252356e-04       2.196959969790e-01 
       5.013822434270e-04       2.296072425755e-01 
       5.250116605782e-04       2.399632486239e-01 
       5.497546978510e-04       2.507836258587e-01 
       5.756638385449e-04       2.620888038117e-01 
       6.027940394210e-04       2.739000499099e-01 
       6.312028472726e-04       2.862394975382e-01 
       6.609505209902e-04       2.991301766183e-01 
       6.921001593779e-04       3.125960270376e-01 
       7.247178349952e-04       3.266619371907e-01 
       7.588727343051e-04       3.413537551074e-01 
       7.946373044283e-04       3.566983112946e-01 
       8.320874068131e-04       3.727234391870e-01 
       8.713024781476e-04       3.894579875260e-01 
       9.123656988559e-04       4.069318292872e-01 
       9.553641695344e-04       4.251758871268e-01 
       1.000389095704e-03       4.442221023277e-01 
       1.047535981271e-03       4.641034580405e-01 
       1.096904831099e-03       4.848539608830e-01 
       1.148600363139e-03       5.065086229634e-01 
       1.202732230545e-03       5.291034249103e-01 
       1.259415254264e-03       5.526752817594e-01 
       1.318769666591e-03       5.772619981819e-01 
       1.380921366191e-03       6.029021778410e-01 
       1.446002185152e-03       6.296351638160e-01 
       1.514150168616e-03       6.575009209054e-01 
       1.585509867594e-03       6.865399021187e-01 
       1.660232645574e-03       7.167929044151e-01 
       1.738476999587e-03       7.483009323999e-01 
       1.820408896397e-03       7.811048584763e-01 
       1.906202124544e-03       8.152453513544e-01 
       1.996038662965e-03       8.507624617498e-01 
       2.090109067004e-03       8.876953450867e-01 
       2.188612872600e-03       9.260818735393e-01 
       2.291759019531e-03       9.659582446580e-01 
       2.399766294604e-03       1.007358455470e+00 
       2.512863795730e-03       1.050313804792e+00 
       2.631291417873e-03       1.094852259895e+00 
       2.755300361896e-03       1.140997847710e+00 
       2.885153667396e-03       1.188769863344e+00 
       3.021126770644e-03       1.238182152019e+00 
       3.163508088822e-03       1.289242163368e+00 
       3.312599631796e-03       1.341950164558e+00 
       3.468717642716e-03       1.396298101771e+00 
       3.632193268816e-03       1.452268830362e+00 
       3.803373263814e-03       1.509834872083e+00 
       3.982620723431e-03       1.568957329231e+00 
       4.170315855554e-03       1.629585044327e+00 
       4.366856786707e-03       1.691653570804e+00 
       4.572660406506e-03       1.755084090920e+00 
       4.788163251864e-03       1.819782611301e+00 
       5.013822432762e-03       1.885639585645e+00 
       5.250116601328e-03       1.952527819615e+00 
       5.497546965834e-03       2.020307922548e+00 
       5.756638350631e-03       2.088817858097e+00 
       6.027940301843e-03       2.157883304213e+00 
       6.312028235853e-03       2.227313690031e+00 
       6.609504622134e-03       2.296903792739e+00 
       6.921000181360e-03       2.366434115150e+00 
       7.247175060160e-03       2.435674274019e+00 
       7.588719909568e-03       2.504382107140e+00 
       7.946356736254e-03       2.572306637347e+00 
       8.320839302068e-03       2.639188112920e+00 
       8.712952702774e-03       2.704759864243e+00 
       9.123511543240e-03       2.768746450950e+00 
       9.553355826116e-03       2.830864355669e+00 
       1.000334327259e-02       2.890817912258e+00 
       1.047433630144e-02       2.948298599005e+00 
       1.096718134364e-02       3.002978690695e+00 
       1.148267766018e-02       3.054508466550e+00 
       1.202153254843e-02       3.102517289301e+00 
       1.258430008717e-02       3.146604262010e+00 
       1.317130184694e-02       3.186355677865e+00 
       1.378253084068e-02       3.221343278602e+00 
       1.441754485614e-02       3.251151999935e+00 
       1.507536209159e-02       3.275401034034e+00 
       1.575437942368e-02       3.293784140968e+00 
       1.645233873034e-02       3.306090518820e+00 
       1.716636530373e-02       3.312247087896e+00 
       1.789309116626e-02       3.312328017847e+00 
       1.862885571852e-02       3.306557596136e+00 
       1.936995326311e-02       3.295294524164e+00 
       2.011288192339e-02       3.278993847972e+00 
       2.085454900126e-02       3.258173938696e+00 
       2.159240335812e-02       3.233389898805e+00 
       2.232448768201e-02       3.205177442978e+00 
       2.304942252117e-02       3.174056704883e+00 
       2.376634395220e-02       3.140507384799e+00 
       2.447481770068e-02       3.104940113690e+00 
       2.517474787071e-02       3.067755854820e+00 
       2.586629197025e-02       3.029265185635e+00 
       2.654978813385e-02       2.989754349267e+00 
       2.722569633342e-02       2.949481446813e+00 
       2.789455293640e-02       2.908649715929e+00 
       2.855693681082e-02       2.867423690445e+00 
       2.921344482475e-02       2.825988039457e+00 
       2.986467467311e-02       2.784461055192e+00 
       3.051121324598e-02       2.742953812429e+00 
       3.115362908813e-02       2.701584193593e+00 
       3.179246781784e-02       2.660438057403e+00 
       3.242824964662e-02       2.619576630061e+00 
       3.306146836151e-02       2.579103599809e+00 
       3.369259130286e-02       2.539078230596e+00 
       3.432206000051e-02       2.499542725068e+00 
       3.495029122750e-02       2.460551604268e+00 
       3.557767830186e-02       2.422145993661e+00 
       3.620459251805e-02       2.384355551891e+00 
       3.683138462739e-02       2.347221426026e+00 
       3.745838631308e-02       2.310755915343e+00 
       3.808591162448e-02       2.274972449301e+00 
       3.871425834856e-02       2.239912029480e+00 
       3.934370930598e-02       2.205594020359e+00 
       3.997453356526e-02       2.172036934633e+00 
       4.060698757339e-02       2.139259739724e+00 
       4.124131620360e-02       2.107286355292e+00 
       4.187775372335e-02       2.076116995548e+00 
       4.251652468637e-02       2.045779778444e+00 
       4.315784475339e-02       2.016278883919e+00 
       4.380192144653e-02       1.987614373958e+00 
       4.444895484213e-02       1.959806672221e+00 
       4.509913820710e-02       1.932842299582e+00 
       4.575265858315e-02       1.906736557933e+00 
       4.640969732355e-02       1.881469880988e+00 
       4.707043058632e-02       1.857054738914e+00 
       4.773502978774e-02       1.833472932643e+00 
       4.840366201971e-02       1.810707432968e+00 
       4.907649043405e-02       1.788746893280e+00 
       4.975367459674e-02       1.767559222139e+00 
       5.043537081486e-02       1.747165373371e+00 
       5.112173243845e-02       1.727491930367e+00 
       5.181291013972e-02       1.708546012348e+00 
       5.250905217143e-02       1.690280665439e+00 
       5.321030460638e-02       1.672677615104e+00 
       5.391681155968e-02       1.655692646313e+00 
       5.462871539508e-02       1.639298454181e+00 
       5.534615691701e-02       1.623462695557e+00 
       5.606927554935e-02       1.608141470784e+00 
       5.679820950211e-02       1.593299525151e+00 
       5.753309592701e-02       1.578894249703e+00 
       5.827407106296e-02       1.564888367410e+00 
       5.902127037216e-02       1.551242501780e+00 
       5.977482866757e-02       1.537912418417e+00 
       6.053488023263e-02       1.524844507178e+00 
       6.130155893359e-02       1.512001769708e+00 
       6.207499832521e-02       1.499339902713e+00 
       6.285533175027e-02       1.486807846455e+00 
       6.364269243341e-02       1.474354842895e+00 
       6.443721356965e-02       1.461943064869e+00 
       6.523902840810e-02       1.449516854144e+00 
       6.604827033112e-02       1.437036157440e+00 
       6.686507292931e-02       1.424450289202e+00 
       6.768957007262e-02       1.411714972298e+00 
       6.852189597788e-02       1.398784785282e+00 
       6.936218527295e-02       1.385619277540e+00 
       7.021057305780e-02       1.372174445880e+00 
       7.106719496263e-02       1.358413667044e+00 
       7.193218720333e-02       1.344299723611e+00 
       7.280568663443e-02       1.329798101016e+00 
       7.368783079963e-02       1.314887814499e+00 
       7.457875798024e-02       1.299537092327e+00 
       7.547860724140e-02       1.283732806296e+00 
       7.638751847653e-02       1.267462738658e+00 
       7.730563244986e-02       1.250719821736e+00 
       7.823309083734e-02       1.233505218582e+00 
       7.917003626588e-02       1.215828644857e+00 
       8.011661235116e-02       1.197701760969e+00 
       8.107296373400e-02       1.179146206977e+00 
       8.203923611538e-02       1.160187024052e+00 
       8.301557629029e-02       1.140855614184e+00 
       8.400213218032e-02       1.121185127683e+00 
       8.499905286519e-02       1.101219160719e+00 
       8.600648861320e-02       1.081002528534e+00 
       8.702459091074e-02       1.060586383524e+00 
       8.805351249081e-02       1.040019897934e+00 
       8.909340736074e-02       1.019374084248e+00 
       9.014443082896e-02       9.986983998496e-01 
       9.120673953112e-02       9.780704791528e-01 
       9.228049145540e-02       9.575528274855e-01 
       9.336584596711e-02       9.372203859959e-01 
       9.446296383264e-02       9.171400433561e-01 
       9.557200724288e-02       8.973788886291e-01 
       9.669313983590e-02       8.780061088060e-01 
       9.782652671922e-02       8.590802564603e-01 
       9.897233449153e-02       8.406600518091e-01 
       1.001307312639e-01       8.227996684739e-01 
       1.013018866804e-01       8.055444884927e-01 
       1.024859719390e-01       7.889409826565e-01 
       1.036831598108e-01       7.730256555320e-01 
       1.048936246604e-01       7.578310885928e-01 
       1.061175424646e-01       7.433805770680e-01 
       1.073550908320e-01       7.296894902672e-01 
       1.086064490212e-01       7.167673290100e-01 
       1.098717979600e-01       7.046068685982e-01 
       1.111513202630e-01       6.932005880444e-01 
       1.124452002505e-01       6.825209018678e-01 
       1.137536239660e-01       6.725462755272e-01 
       1.150767791943e-01       6.632339100577e-01 
       1.164148554796e-01       6.545401651024e-01 
       1.177680441428e-01       6.464129130203e-01 
       1.191365383000e-01       6.387903107080e-01 
       1.205205328796e-01       6.316072583284e-01 
       1.219202246406e-01       6.247900366539e-01 
       1.233358121908e-01       6.182566874373e-01 
       1.247674960041e-01       6.119232388593e-01 
       1.262154784397e-01       6.057045674744e-01 
       1.276799637599e-01       5.995125622761e-01 
       1.291611581492e-01       5.932630209727e-01 
       1.306592697330e-01       5.868738303944e-01 
       1.321745085970e-01       5.802701798997e-01 
       1.337070868071e-01       5.733769784246e-01 
       1.352572184290e-01       5.661373288201e-01 
       1.368251195489e-01       5.584942002132e-01 
       1.384110082948e-01       5.504093678388e-01 
       1.400151048573e-01       5.418568096373e-01 
       1.416376315125e-01       5.328278612151e-01 
       1.432788126441e-01       5.233289086597e-01 
       1.449388747672e-01       5.133831344236e-01 
       1.466180465522e-01       5.030269372059e-01 
       1.483165588498e-01       4.923111177088e-01 
       1.500346447167e-01       4.812997762602e-01 
       1.517725394423e-01       4.700680256367e-01 
       1.535304805762e-01       4.587022091897e-01 
       1.553087079567e-01       4.472950598551e-01 
       1.571074637407e-01       4.359427398585e-01 
       1.589269924342e-01       4.247412968632e-01 
       1.607675409244e-01       4.137834401267e-01 
       1.626293585127e-01       4.031569390588e-01 
       1.645126969494e-01       3.929414591762e-01 
       1.664178104695e-01       3.832082935019e-01 
       1.683449558301e-01       3.740149082666e-01 
       1.702943923491e-01       3.654039947762e-01 
       1.722663819457e-01       3.574020740726e-01 
       1.742611891826e-01       3.500178969463e-01 
       1.762790813099e-01       3.432431348484e-01 
       1.783203283105e-01       3.370544076772e-01 
       1.803852029478e-01       3.314115115291e-01 
       1.824739808153e-01       3.262591688717e-01 
       1.845869403884e-01       3.215276312261e-01 
       1.867243630778e-01       3.171354295075e-01 
       1.888865332854e-01       3.129941536929e-01 
       1.910737384634e-01       3.090104344815e-01 
       1.932862691740e-01       3.051216595549e-01 
       1.955244191537e-01       3.012260069943e-01 
       1.977884853783e-01       2.972086854373e-01 
       2.000787681320e-01       2.929898828836e-01 
       2.023955710787e-01       2.885056380116e-01 
       2.047392013365e-01       2.837108078564e-01 
       2.071099695544e-01       2.785813498357e-01 
       2.095081899940e-01       2.731161013766e-01 
       2.119341806119e-01       2.673371104616e-01 
       2.143882631479e-01       2.612893198141e-01 
       2.168707632153e-01       2.550363363377e-01 
       2.193820103951e-01       2.486544511290e-01 
       2.219223383340e-01       2.422276898060e-01 
       2.244920848465e-01       2.358422605419e-01 
       2.270915920209e-01       2.295831535824e-01 
       2.297212063293e-01       2.235275949541e-01 
       2.323812787420e-01       2.177418066147e-01 
       2.350721648469e-01       2.122787911426e-01 
       2.377942249726e-01       2.071764073167e-01 
       2.405478243169e-01       2.024569486124e-01 
       2.433333330804e-01       1.981233587029e-01 
       2.461511266052e-01       1.941614485344e-01 
       2.490015855182e-01       1.905380513597e-01 
       2.518850958811e-01       1.872037500932e-01 
       2.548020493455e-01       1.840933638746e-01 
       2.577528433139e-01       1.811362149745e-01 
       2.607378811073e-01       1.782554889221e-01 
       2.637575721387e-01       1.753767115951e-01 
       2.668123320937e-01       1.724371420607e-01 
       2.699025831178e-01       1.693834792644e-01 
       2.730287540109e-01       1.661818127957e-01 
       2.761912804292e-01       1.628165216970e-01 
       2.793906050948e-01       1.592909390582e-01 
       2.826271780137e-01       1.556261887677e-01 
       2.859014567017e-01       1.518595513328e-01 
       2.892139064192e-01       1.480428470056e-01 
       2.925650004150e-01       1.442353951095e-01 
       2.959552201797e-01       1.404997384082e-01 
       2.993850557086e-01       1.368944714653e-01 
       3.028550057750e-01       1.334673898450e-01 
       3.063655782144e-01       1.302502279619e-01 
       3.099172902189e-01       1.272554819040e-01 
       3.135106686447e-01       1.244776780134e-01 
       3.171462503301e-01       1.218948621029e-01 
       3.208245824271e-01       1.194742530459e-01 
       3.245462227460e-01       1.171742522018e-01 
       3.283117401135e-01       1.149503784365e-01 
       3.321217147457e-01       1.127572257341e-01 
       3.359767386358e-01       1.105528813507e-01 
       3.398774159576e-01       1.083061119461e-01 
       3.438243634858e-01       1.059975903635e-01 
       3.478182110334e-01       1.036242082603e-01 
       3.518596019074e-01       1.011995935120e-01 
       3.559491933834e-01       9.874852789489e-02 
       3.600876572003e-01       9.630254400057e-02 
       3.642756800760e-01       9.389515885597e-02 
       3.685139642453e-01       9.155662837109e-02 
       3.728032280205e-01       8.931176153723e-02 
